Time,Altitude,Pressure,Velocity,Temperature,Events,Voltages
0.00,-1.194426E-06,1017.40,0,96.98, -,8.926488
0.05,8.165001,1017.10,7.761905,96.98, -,8.926488
0.10,13.6072,1016.90,12.95238,96.98, -,8.926488
0.15,21.77546,1016.60,20.71428,96.98, -,8.926488
0.20,29.944,1016.30,28.47619,96.98, -,8.926488
0.25,43.56313,1015.80,41.42857,96.98, -,8.926488
0.30,57.18769,1015.30,54.38095,96.98, -,8.926488
0.35,65.36471,1015.00,62.19048,96.98, -,8.926488
0.40,76.27155,1014.60,72.57143,96.98, -,8.926488
0.45,98.094,1013.80,93.33334,96.98, -,8.926488
0.50,111.7403,1013.30,106.3333,96.98, -,8.926488
0.55,125.3921,1012.80,119.3333,96.98, -,8.926488
0.60,141.7808,1012.20,134.9524,96.98, -,8.926488
0.65,166.3802,1011.30,158.381,96.98, -,8.926488
0.70,190.9957,1010.40,181.8095,96.98, -,8.926488
0.75,207.4176,1009.80,197.4286,96.98, -,8.926488
0.80,223.8457,1009.20,213.0952,96.98, -,8.926488
0.85,253.9866,1008.10,241.8095,96.98, -,8.926488
0.90,267.6954,1007.60,254.8571,96.98, -,8.926488
0.95,286.8957,1006.90,273.1429,96.98, -,8.926488
1.00,306.1083,1006.20,291.4286,96.98, -,8.926488
1.05,325.3319,1005.50,309.7143,96.98, -,8.926488
1.10,341.8169,1004.90,317.6667,96.98, -,8.926488
1.15,361.0605,1004.20,330.8095,96.98, -,8.926488
1.20,377.5645,1003.60,338.7619,96.98, -,8.926488
1.25,399.5805,1002.80,351.9524,96.98, -,8.926488
1.30,418.8568,1002.10,357.381,96.98, -,8.926488
1.35,435.3871,1001.50,360.1905,96.98, -,8.926488
1.40,451.9253,1000.90,368.1429,96.98, -,8.926488
1.45,471.2313,1000.20,376.1429,96.98, -,8.926488
1.50,490.5482,999.50,373.7619,96.98, -,8.926488
1.55,509.876,998.80,379.1905,96.98, -,8.926488
1.60,523.688,998.30,379.3333,96.98, -,8.926488
1.65,540.2693,997.70,379.5238,96.98, -,8.926488
1.70,556.8603,997.10,371.9048,96.98, -,8.926488
1.75,576.2241,996.40,366.9048,96.98, -,8.926488
1.80,590.0631,995.90,364.4762,96.98, -,8.926488
1.85,609.4475,995.20,367.2857,96.98, -,8.926488
1.90,626.0723,994.60,354.381,96.98, -,8.926488
1.95,642.7034,994.00,357.1905,96.98, -,8.926488
2.00,659.3427,993.40,354.7619,96.98, -,8.926488
2.05,675.9918,992.80,352.3333,96.98, -,8.926488
2.10,692.6474,992.20,349.9048,96.98, -,8.926488
2.15,709.3128,991.60,350.0476,96.98, -,8.926488
2.20,725.9847,991.00,347.5714,96.98, -,8.926488
2.25,742.6648,990.40,347.7619,96.98, -,8.926488
2.30,759.3547,989.80,342.7143,96.98, -,8.926488
2.35,776.0512,989.20,340.2381,96.98, -,8.926488
2.40,789.9717,988.70,337.7143,96.98, -,8.926488
2.45,806.6849,988.10,337.8571,96.98, -,8.926488
2.50,820.618,987.60,332.7619,96.98, -,8.926488
2.55,834.5568,987.10,327.6667,96.98, -,8.926488
2.60,851.2902,986.50,325.1905,96.98, -,8.926488
2.65,868.0319,985.90,328,96.98, -,8.926488
2.70,881.9902,985.40,325.4762,96.98, -,8.926488
2.75,895.9542,984.90,322.9524,96.98, -,8.926488
2.80,912.7196,984.30,320.4762,96.98, -,8.926488
2.85,929.4916,983.70,323.2381,96.98, -,8.926488
2.90,940.6786,983.30,315.4286,96.98, -,8.926488
2.95,957.4644,982.70,315.619,96.98, -,8.926488
3.00,968.6607,982.30,310.4286,96.98, -,8.926488
3.05,985.4603,981.70,310.5714,96.98, -,8.926488
3.10,996.6658,981.30,305.381,96.98, -,8.926488
3.15,1013.479,980.70,305.5238,96.98, -,8.926488
3.20,1024.694,980.30,300.3333,96.98, -,8.926488
3.25,1041.521,979.70,300.5238,96.98, -,8.926488
3.30,1052.745,979.30,295.2857,96.98, -,8.926488
3.35,1069.587,978.70,295.4286,96.98, -,8.926488
3.40,1080.82,978.30,290.2381,96.98, -,8.926488
3.45,1094.866,977.80,290.381,96.98, -,8.926488
3.50,1108.918,977.30,287.8571,96.98, -,8.945935
3.55,1122.976,976.80,287.9524,96.98, -,8.945935
3.60,1134.225,976.40,285.381,96.98, -,8.945935
3.65,1148.293,975.90,282.8095,96.98, -,8.945935
3.70,1159.553,975.50,277.5714,96.98, -,8.945935
3.75,1173.631,975.00,277.7143,96.98, -,8.945935
3.80,1187.716,974.50,277.8571,96.98, -,8.945935
3.85,1198.988,974.10,272.619,96.98, -,8.945935
3.90,1210.263,973.70,267.381,96.98, -,8.945935
3.95,1224.363,973.20,270.1429,96.98, -,8.945935
4.00,1235.647,972.80,264.9048,96.98, -,8.945935
4.05,1246.934,972.40,265,96.98, -,8.945935
4.10,1261.049,971.90,262.4286,96.98, -,8.945935
4.15,1272.346,971.50,262.5238,96.98, -,8.945935
4.20,1283.647,971.10,257.2857,96.98, -,8.945935
4.25,1297.777,970.60,260.0952,96.98, -,8.945935
4.30,1309.084,970.20,254.8095,96.98, -,8.945935
4.35,1320.397,969.80,254.9048,96.98, -,8.945935
4.40,1331.712,969.40,249.619,96.98, -,8.945935
4.45,1343.033,969.00,249.6667,96.98, -,8.945935
4.50,1354.357,968.60,247.0476,96.98, -,8.945935
4.55,1365.684,968.20,244.4762,96.98, -,8.945935
4.60,1374.181,967.90,239.1905,96.98, -,8.945935
4.65,1388.349,967.40,241.9524,96.98, -,8.945935
4.70,1396.854,967.10,236.6667,96.98, -,8.945935
4.75,1408.195,966.70,236.7619,96.98, -,8.945935
4.80,1419.541,966.30,234.1429,96.98, -,8.945935
4.85,1430.889,965.90,231.5238,96.98, -,8.945935
4.90,1439.405,965.60,228.9048,96.98, -,8.945935
4.95,1450.76,965.20,229,96.98, -,8.945935
5.00,1462.12,964.80,226.381,96.98, -,8.945935
5.05,1470.642,964.50,223.7143,96.98, -,8.945935
5.10,1482.01,964.10,223.7619,96.98, -,8.945935
5.15,1493.379,963.70,221.1429,96.98, -,8.945935
5.20,1501.909,963.40,218.5238,96.98, -,8.945935
5.25,1513.286,963.00,218.619,96.98, -,8.945935
5.30,1521.821,962.70,213.2857,96.98, -,8.945935
5.35,1530.358,962.40,210.6667,96.98, -,8.945935
5.40,1538.899,962.10,208.0476,96.98, -,8.945935
5.45,1550.287,961.70,208.1429,96.98, -,8.945935
5.50,1561.681,961.30,208.2381,96.98, -,8.945935
5.55,1570.228,961.00,205.619,96.98, -,8.945935
5.60,1578.777,960.70,202.9524,96.98, -,8.945935
5.65,1587.329,960.40,203,96.98, -,8.945935
5.70,1595.884,960.10,197.6667,96.98, -,8.945935
5.75,1607.291,959.70,200.4286,96.98, -,8.945935
5.80,1615.85,959.40,197.7619,96.98, -,8.945935
5.85,1624.412,959.10,195.0952,96.98, -,8.945935
5.90,1632.975,958.80,192.4286,96.98, -,8.945935
5.95,1641.541,958.50,192.4762,96.98, -,8.945935
6.00,1650.108,958.20,189.8095,96.98, -,8.945935
6.05,1658.677,957.90,187.1429,96.98, -,8.945935
6.10,1667.251,957.60,187.1905,96.98, -,8.945935
6.15,1675.824,957.30,184.5238,96.98, -,8.945935
6.20,1681.542,957.10,179.1429,96.98, -,8.945935
6.25,1690.12,956.80,179.1905,96.98, -,8.945935
6.30,1698.699,956.50,176.5238,96.98, -,8.945935
6.35,1707.281,956.20,176.5714,96.98, -,8.945935
6.40,1713.004,956.00,173.8571,96.98, -,8.945935
6.45,1721.589,955.70,173.9048,96.98, -,8.945935
6.50,1727.315,955.50,168.5238,96.98, -,8.945935
6.55,1738.768,955.10,168.5714,96.98, -,8.945935
6.60,1744.495,954.90,165.9048,96.98, -,8.945935
6.65,1753.09,954.60,165.9524,96.98, -,8.945935
6.70,1758.819,954.40,163.2857,96.98, -,8.945935
6.75,1767.418,954.10,163.3333,96.98, -,8.945935
6.80,1773.149,953.90,157.9524,96.98, -,8.945935
6.85,1781.752,953.60,158,96.98, -,8.945935
6.90,1787.486,953.40,155.3333,96.98, -,8.945935
6.95,1796.092,953.10,155.381,96.98, -,8.945935
7.00,1801.828,952.90,152.7143,96.98, -,8.945935
7.05,1807.567,952.70,150.0476,96.98, -,8.945935
7.10,1813.307,952.50,147.381,96.98, -,8.945935
7.15,1821.918,952.20,147.4286,96.98, -,8.945935
7.20,1827.66,952.00,144.7619,96.98, -,8.945935
7.25,1833.404,951.80,144.8095,96.98, -,8.945935
7.30,1839.148,951.60,142.0952,96.98, -,8.945935
7.35,1844.892,951.40,139.381,96.98, -,8.945935
7.40,1850.638,951.20,136.6667,96.98, -,8.945935
7.45,1859.259,950.90,139.4286,96.98, -,8.945935
7.50,1865.007,950.70,136.7143,96.98, -,8.926488
7.55,1870.757,950.50,136.7143,96.98, -,8.926488
7.60,1876.508,950.30,131.2857,96.98, -,8.926488
7.65,1882.26,950.10,131.2857,96.98, -,8.926488
7.70,1888.011,949.90,128.5714,96.98, -,8.926488
7.75,1893.764,949.70,128.5714,96.98, -,8.926488
7.80,1896.642,949.60,123.1429,96.98, -,8.926488
7.85,1902.396,949.40,123.1429,96.98, -,8.926488
7.90,1908.152,949.20,120.4286,96.98, -,8.926488
7.95,1913.909,949.00,120.4286,96.98, -,8.926488
8.00,1919.667,948.80,117.7143,96.98, -,8.926488
8.05,1925.426,948.60,117.7143,96.98, -,8.926488
8.10,1928.305,948.50,115,96.98, -,8.926488
8.15,1934.066,948.30,115,96.98, -,8.926488
8.20,1936.946,948.20,109.5714,96.98, -,8.926488
8.25,1942.708,948.00,109.5714,96.98, -,8.926488
8.30,1948.471,947.80,109.5714,96.98, -,8.926488
8.35,1951.352,947.70,106.8571,96.98, -,8.926488
8.40,1957.116,947.50,106.8571,96.98, -,8.926488
8.45,1962.882,947.30,106.8571,96.98, -,8.926488
8.50,1965.764,947.20,101.4286,96.98, -,8.926488
8.55,1968.648,947.10,98.71429,96.98, -,8.926488
8.60,1974.414,946.90,98.71429,96.98, -,8.926488
8.65,1977.299,946.80,96,96.98, -,8.926488
8.70,1983.068,946.60,96,96.98, -,8.926488
8.75,1985.952,946.50,93.28571,96.98, -,8.926488
8.80,1988.836,946.40,90.57143,96.98, -,8.926488
8.85,1991.722,946.30,90.57143,96.98, -,8.926488
8.90,1997.494,946.10,90.57143,96.98, -,8.926488
8.95,2000.379,946.00,87.85714,96.98, -,8.926488
9.00,2003.264,945.90,85.14286,96.98, -,8.926488
9.05,2006.152,945.80,82.42857,96.98, -,8.926488
9.10,2009.038,945.70,79.71429,96.98, -,8.926488
9.15,2014.812,945.50,82.42857,96.98, -,8.926488
9.20,2014.812,945.50,76.95238,96.98, -,8.926488
9.25,2017.699,945.40,76.95238,96.98, -,8.926488
9.30,2023.475,945.20,77,96.98, -,8.926488
9.35,2026.364,945.10,74.28571,96.98, -,8.926488
9.40,2029.252,945.00,74.28571,96.98, -,8.926488
9.45,2032.14,944.90,71.57143,96.98, -,8.926488
9.50,2035.029,944.80,68.85714,96.98, -,8.945935
9.55,2037.918,944.70,68.85714,96.98, -,8.945935
9.60,2037.918,944.70,66.09524,96.98, -,8.945935
9.65,2040.808,944.60,63.38095,96.98, -,8.945935
9.70,2043.697,944.50,63.38095,96.98, -,8.945935
9.75,2046.586,944.40,60.66667,96.98, -,8.945935
9.80,2049.478,944.30,60.66667,96.98, -,8.945935
9.85,2049.478,944.30,57.90476,96.98, -,8.945935
9.90,2052.367,944.20,57.90476,96.98, -,8.945935
9.95,2055.259,944.10,55.19048,96.98, -,8.945935
10.00,2055.259,944.10,52.42857,96.98, -,8.945935
10.05,2058.149,944.00,52.42857,96.98, -,8.945935
10.10,2061.039,943.90,52.42857,96.98, -,8.945935
10.15,2061.039,943.90,49.66667,96.98, -,8.945935
10.20,2063.932,943.80,46.95238,96.98, -,8.945935
10.25,2063.932,943.80,46.95238,96.98, -,8.945935
10.30,2066.823,943.70,46.95238,96.98, -,8.945935
10.35,2066.823,943.70,41.42857,96.98, -,8.945935
10.40,2069.716,943.60,41.42857,96.98, -,8.945935
10.45,2069.716,943.60,38.66667,96.98, -,8.945935
10.50,2072.607,943.50,38.66667,96.98, -,8.945935
10.55,2075.499,943.40,38.66667,96.98, -,8.848697
10.60,2075.499,943.40,35.90476,96.98, -,8.848697
10.65,2075.499,943.40,35.90476,96.98, -,8.848697
10.70,2078.392,943.30,35.90476,96.98, -,8.848697
10.75,2075.499,943.40,30.38095,96.98, -,8.848697
10.80,2075.499,943.40,27.61905,96.98, -,8.848697
10.85,2075.499,943.40,24.85714,96.98, -,8.848697
10.90,2078.392,943.30,27.61905,96.98, -,8.848697
10.95,2078.392,943.30,24.85714,96.98, -,8.848697
11.00,2078.392,943.30,22.09524,96.98, -,8.848697
11.05,2078.392,943.30,22.09524,96.98, -,8.848697
11.10,2078.392,943.30,19.33333,96.98, -,8.848697
11.15,2078.392,943.30,16.57143,96.98, -,8.848697
11.20,2078.392,943.30,16.57143,96.98, -,8.848697
11.25,2078.392,943.30,13.80952,96.98, -,8.848697
11.30,2078.392,943.30,13.80952,96.98, -,8.848697
11.35,2081.284,943.20,13.80952,96.98, -,8.848697
11.40,2078.392,943.30,11.04762,96.98, -,8.848697
11.45,2078.392,943.30,8.285714,96.98, -,8.848697
11.50,2078.392,943.30,8.285714,96.98, -,8.926488
11.55,2075.499,943.40,2.761905,96.98, -,8.926488
11.60,2075.499,943.40,0,96.98, -,8.926488
11.65,2078.392,943.30,2.761905,96.98, -,8.926488
11.70,2075.499,943.40,0,96.98, -,8.926488
11.75,2075.499,943.40,-2.761905,96.98, -,8.926488
11.80,2075.499,943.40,0,96.98, -,8.926488
11.85,2072.607,943.50,-2.761905,96.98, -,8.926488
11.90,2072.607,943.50,-2.761905,96.98, -,8.926488
11.95,2069.716,943.60,-8.285714,96.98, -,8.926488
12.00,2069.716,943.60,-8.285714,96.98, -,8.926488
12.05,2069.716,943.60,-8.285714,96.98, -,8.926488
12.10,2066.823,943.70,-11.04762,96.98, -,8.926488
12.15,2066.823,943.70,-11.04762,96.98, -,8.926488
12.20,2063.932,943.80,-13.80952,96.98, -,8.926488
12.25,2063.932,943.80,-13.80952,96.98, -,8.926488
12.30,2061.039,943.90,-16.57143,96.98, -,8.926488
12.35,1385.516,967.50,-659.9048,96.98, -,8.926488
12.40,2058.149,944.00,-22.04762,96.98, -,8.926488
12.45,2069.716,943.60,-8.285714,96.98, -,8.926488
12.50,2066.823,943.70,-11.04762,96.98, -,8.926488
12.55,2063.932,943.80,-13.80952,96.98, -,8.926488
12.60,2063.932,943.80,-11.04762,96.98, -,8.926488
12.65,2061.039,943.90,-13.80952,96.98, -,8.926488
12.70,2058.149,944.00,-19.33333,96.98, -,8.926488
12.75,2058.149,944.00,-16.57143,96.98, -,8.926488
12.80,2058.149,944.00,-16.57143,96.98, -,8.926488
12.85,2052.367,944.20,-22.09524,96.98, -,8.926488
12.90,2049.478,944.30,-22.09524,96.98, -,8.926488
12.95,2052.367,944.20,-19.33333,96.98, -,8.926488
13.00,2058.149,944.00,-11.04762,96.98, -,8.926488
13.05,2063.932,943.80,-5.523809,96.98, -,8.926488
13.10,2066.823,943.70,-2.761905,96.98, -,8.926488
13.15,2072.607,943.50,5.523809,96.98, -,8.926488
13.20,2084.178,943.10,16.52381,96.98, -,8.926488
13.25,2092.859,942.80,27.57143,96.98, -,8.926488
13.30,2089.964,942.90,24.80952,96.98, Drogue,8.926488
13.35,2069.716,943.60,8.285714,96.98, -,8.926488
13.40,2063.932,943.80,646.0952,96.98, -,8.926488
13.45,2055.259,944.10,-2.761905,96.98, -,8.926488
13.50,2055.259,944.10,-13.7619,96.98, -,8.945935
13.55,2058.149,944.00,-8.238095,96.98, -,8.945935
13.60,2052.367,944.20,-11,96.98, -,8.945935
13.65,2049.478,944.30,-13.7619,96.98, -,8.945935
13.70,2043.697,944.50,-16.52381,96.98, -,8.945935
13.75,2035.029,944.80,-22,96.98, -,8.945935
13.80,2020.588,945.30,-35.76191,96.98, -,8.945935
13.85,2009.038,945.70,-46.76191,96.98, -,8.945935
13.90,2003.264,945.90,-46.71429,96.98, -,8.945935
13.95,2003.264,945.90,-43.95238,96.98, -,8.945935
14.00,2003.264,945.90,-46.71429,96.98, -,8.945935
14.05,2000.379,946.00,-55,96.98, -,8.945935
14.10,1991.722,946.30,-68.7619,96.98, -,8.945935
14.15,1988.836,946.40,-74.28571,96.98, -,8.945935
14.20,1980.182,946.70,-88.04762,96.98, -,8.945935
14.25,1977.299,946.80,-101.8095,96.98, -,8.945935
14.30,1980.182,946.70,-107.3333,96.98, -,8.945935
14.35,1974.414,946.90,-110.0476,96.98, -,8.945935
14.40,1968.648,947.10,-96.2381,96.98, -,8.945935
14.45,1957.116,947.50,-101.7143,96.98, -,8.945935
14.50,1954.235,947.60,-96.2381,96.98, -,8.945935
14.55,1957.116,947.50,-93.47619,96.8, -,8.945935
14.60,1959.998,947.40,-93.47619,96.8, -,8.945935
14.65,1971.531,947.00,-76.95238,96.8, -,8.945935
14.70,1980.182,946.70,-65.95238,96.8, -,8.945935
14.75,1974.414,946.90,-65.90476,96.8, -,8.945935
14.80,1980.182,946.70,-52.19048,96.8, -,8.945935
14.85,1965.764,947.20,-52.14286,96.8, -,8.945935
14.90,1945.588,947.90,-60.38095,96.8, -,8.945935
14.95,1942.708,948.00,-57.66667,96.8, -,8.945935
15.00,1945.588,947.90,-54.90476,96.8, -,8.945935
15.05,1954.235,947.60,-46.66667,96.8, -,8.945935
15.10,1945.588,947.90,-52.14286,96.8, -,8.945935
15.15,1936.946,948.20,-52.14286,96.8, -,8.945935
15.20,1931.185,948.40,-54.85714,96.8, -,8.945935
15.25,1931.185,948.40,-46.61905,96.8, -,8.945935
15.30,1928.305,948.50,-46.61905,96.8, -,8.945935
15.35,1928.305,948.50,-49.38095,96.8, -,8.945935
15.40,1928.305,948.50,-43.90476,96.8, -,8.945935
15.45,1925.426,948.60,-41.19048,96.8, -,8.945935
15.50,1916.787,948.90,-38.42857,96.8, -,8.945935
15.55,1902.396,949.40,-49.38095,96.8, -,8.945935
15.60,1899.519,949.50,-54.90476,96.8, -,8.945935
15.65,1899.519,949.50,-57.66667,96.8, -,8.945935
15.70,1899.519,949.50,-68.66666,96.8, -,8.945935
15.75,1899.519,949.50,-76.90476,96.8, -,8.945935
15.80,1899.519,949.50,-71.42857,96.8, -,8.945935
15.85,1902.396,949.40,-74.14286,96.8, -,8.945935
15.90,1905.275,949.30,-57.66667,96.8, -,8.945935
15.95,1896.642,949.60,-46.66667,96.8, -,8.945935
16.00,1893.764,949.70,-46.66667,96.8, -,8.945935
16.05,1888.011,949.90,-54.90476,96.8, -,8.945935
16.10,1882.26,950.10,-68.61905,96.8, -,8.945935
16.15,1879.383,950.20,-63.14286,96.8, -,8.945935
16.20,1879.383,950.20,-54.90476,96.8, -,8.945935
16.25,1879.383,950.20,-49.42857,96.8, -,8.945935
16.30,1882.26,950.10,-46.66667,96.8, -,8.945935
16.35,1879.383,950.20,-46.66667,96.8, -,8.945935
16.40,1873.632,950.40,-52.14286,96.8, -,8.945935
16.45,1867.883,950.60,-57.61905,96.8, -,8.945935
16.50,1859.259,950.90,-63.04762,96.8, -,8.945935
16.55,1853.513,951.10,-60.28571,96.8, -,8.926488
16.60,1853.513,951.10,-46.57143,96.8, -,8.926488
16.65,1850.638,951.20,-46.52381,96.8, -,8.926488
16.70,1853.513,951.10,-43.80952,96.8, -,8.926488
16.75,1859.259,950.90,-38.33333,96.8, -,8.926488
16.80,1859.259,950.90,-38.33333,96.8, -,8.926488
16.85,1856.385,951.00,-41.04762,96.8, -,8.926488
16.90,1850.638,951.20,-49.28571,96.8, -,8.926488
16.95,1842.02,951.50,-60.23809,96.8, -,8.926488
17.00,1836.275,951.70,-57.47619,96.8, -,8.926488
17.05,1836.275,951.70,-54.71429,96.8, -,8.926488
17.10,1836.275,951.70,-49.23809,96.8, -,8.926488
17.15,1830.531,951.90,-49.23809,96.8, -,8.926488
17.20,1824.79,952.10,-51.95238,96.8, -,8.926488
17.25,1821.918,952.20,-54.66667,96.8, -,8.926488
17.30,1819.048,952.30,-57.38095,96.8, -,8.926488
17.35,1821.918,952.20,-57.42857,96.8, -,8.926488
17.40,1821.918,952.20,-54.66667,96.8, -,8.926488
17.45,1824.79,952.10,-46.47619,96.8, -,8.926488
17.50,1824.79,952.10,-41,96.8, -,8.965384
17.55,1813.307,952.50,-43.76191,96.8, -,8.965384
17.60,1804.698,952.80,-46.47619,96.8, -,8.965384
17.65,1796.092,953.10,-54.66667,96.8, -,8.965384
17.70,1793.222,953.20,-54.66667,96.8, -,8.965384
17.75,1790.355,953.30,-60.09524,96.8, -,8.965384
17.80,1790.355,953.30,-65.57143,96.8, -,8.965384
17.85,1793.222,953.20,-62.85714,96.8, -,8.965384
17.90,1796.092,953.10,-57.42857,96.8, -,8.965384
17.95,1790.355,953.30,-57.42857,96.8, -,8.965384
18.00,1781.752,953.60,-57.42857,96.8, -,8.965384
18.05,1778.883,953.70,-54.66667,96.8, -,8.965384
18.10,1776.017,953.80,-57.38095,96.8, -,8.965384
18.15,1773.149,953.90,-60.09524,96.8, -,8.965384
18.20,1776.017,953.80,-51.90476,96.8, -,8.965384
18.25,1770.283,954.00,-51.90476,96.8, -,8.965384
18.30,1761.686,954.30,-57.38095,96.8, -,8.965384
18.35,1758.819,954.40,-57.38095,96.8, -,8.965384
18.40,1761.686,954.30,-57.38095,96.8, -,8.965384
18.45,1764.551,954.20,-54.66667,96.8, -,8.965384
18.50,1764.551,954.20,-57.38095,96.8, -,8.965384
18.55,1758.819,954.40,-62.85714,96.8, -,8.945935
18.60,1755.954,954.50,-54.61905,96.8, -,8.945935
18.65,1747.36,954.80,-54.61905,96.8, -,8.945935
18.70,1744.495,954.90,-49.14286,96.8, -,8.945935
18.75,1744.495,954.90,-46.42857,96.8, -,8.945935
18.80,1741.631,955.00,-46.42857,96.8, -,8.945935
18.85,1744.495,954.90,-43.71429,96.8, -,8.945935
18.90,1744.495,954.90,-46.42857,96.8, -,8.945935
18.95,1747.36,954.80,-46.42857,96.8, -,8.945935
19.00,1747.36,954.80,-40.95238,96.8, -,8.945935
19.05,1735.904,955.20,-43.66667,96.8, -,8.945935
19.10,1724.453,955.60,-51.85714,96.8, -,8.945935
19.15,1713.004,956.00,-60.04762,96.8, -,8.945935
19.20,1710.143,956.10,-60.04762,96.8, -,8.945935
19.25,1707.281,956.20,-65.47619,96.8, -,8.945935
19.30,1707.281,956.20,-60,96.8, -,8.945935
19.35,1707.281,956.20,-51.80952,96.8, -,8.945935
19.40,1704.421,956.30,-51.80952,96.8, -,8.945935
19.45,1701.559,956.40,-57.23809,96.8, -,8.945935
19.50,1695.84,956.60,-65.38095,96.8, -,8.945935
19.55,1690.12,956.80,-70.80952,96.8, -,8.945935
19.60,1684.4,957.00,-70.7619,96.8, -,8.945935
19.65,1687.259,956.90,-65.33334,96.8, -,8.945935
19.70,1692.979,956.70,-51.71429,96.8, -,8.945935
19.75,1690.12,956.80,-51.71429,96.8, -,8.945935
19.80,1690.12,956.80,-51.71429,96.8, -,8.945935
19.85,1695.84,956.60,-43.57143,96.8, -,8.945935
19.90,1690.12,956.80,-51.71429,96.8, -,8.945935
19.95,1687.259,956.90,-54.42857,96.8, -,8.945935
20.00,1687.259,956.90,-57.14286,96.8, -,8.945935
20.05,1687.259,956.90,-57.14286,96.8, -,8.945935
20.10,1675.824,957.30,-57.14286,96.8, -,8.945935
20.15,1670.108,957.50,-51.66667,96.8, -,8.945935
